T_r (-),p_r (-),omega (-),p_c (Pa),T_c (K),mu ((J*m^3/kmol)^0.5),Z (-),phi (-),no
0.43747292391000414,5.2532369598343265e-15,0.3442920843,22063999.99999776,647.0959999999873,5.84934e-25,0.9999890238951248,0.9999999999999188,1
0.45253980183559434,9.854690828871403e-15,0.3442920843,22063999.99999776,647.0959999999873,5.84934e-25,0.9999890238950839,0.999999999999878,1
0.467335211894326,1.7481999889862902e-14,0.3442920843,22063999.99999776,647.0959999999873,5.84934e-25,0.9999890238950292,0.9999999999998233,1
0.4818616219758979,2.9524197878835804e-14,0.3442920843,22063999.99999776,647.0959999999873,5.84934e-25,0.9999890238949579,0.999999999999752,1
0.4961214999700088,4.7739307929158503e-14,0.3442920843,22063999.99999776,647.0959999999873,5.84934e-25,0.999989023894868,0.9999999999996616,1
0.5101173137663577,7.42679255450551e-14,0.3442920843,22063999.99999776,647.0959999999873,5.84934e-25,0.9999890238947561,0.99999999999955,1
0.523851531254643,1.116285686795951e-13,0.3442920843,22063999.99999776,647.0959999999873,5.84934e-25,0.9999890238946212,0.999999999999415,1
0.5373266203245634,1.6269511401957166e-13,0.3442920843,22063999.99999776,647.0959999999873,5.84934e-25,0.999989023894461,0.9999999999992548,1
0.5505450488658176,2.3065811905043854e-13,0.3442920843,22063999.99999776,647.0959999999873,5.84934e-25,0.9999890238942745,0.9999999999990682,1
0.5635092847681047,3.1897287805229434e-13,0.3442920843,22063999.99999776,647.0959999999873,5.84934e-25,0.99998902389406,0.999999999998854,1
0.5762217959211229,4.312976451666383e-13,0.3442920843,22063999.99999776,647.0959999999873,5.84934e-25,0.9999890238938174,0.9999999999986112,1
0.5886850502145712,5.714256241134597e-13,0.3442920843,22063999.99999776,647.0959999999873,5.84934e-25,0.9999890238935462,0.99999999999834,1
0.6009015155381483,7.432141615060196e-13,0.3442920843,22063999.99999776,647.0959999999873,5.84934e-25,0.9999890238932464,0.9999999999980403,1
0.6128736597815527,9.505141937197432e-13,0.3442920843,22063999.99999776,647.0959999999873,5.84934e-25,0.9999890238929187,0.9999999999977128,1
0.6246039508344834,1.1971024844683671e-12,0.3442920843,22063999.99999776,647.0959999999873,5.84934e-25,0.9999890238925636,0.9999999999973576,1
0.6360948565866388,1.4866186317706211e-12,0.3442920843,22063999.99999776,647.0959999999873,5.84934e-25,0.9999890238921826,0.9999999999969764,1
0.647348844927718,1.82250827643185e-12,0.3442920843,22063999.99999776,647.0959999999873,5.84934e-25,0.999989023891776,0.99999999999657,1
0.6583683837474194,2.2079734459258304e-12,0.3442920843,22063999.99999776,647.0959999999873,5.84934e-25,0.9999890238913461,0.99999999999614,1
0.6691559409354417,2.6459305370877637e-12,0.3442920843,22063999.99999776,647.0959999999873,5.84934e-25,0.999989023890894,0.999999999995688,1
0.679713984381484,3.1389760856297985e-12,0.3442920843,22063999.99999776,647.0959999999873,5.84934e-25,0.9999890238904213,0.9999999999952156,1
0.6900449819752446,3.689360189555958e-12,0.3442920843,22063999.99999776,647.0959999999873,5.84934e-25,0.9999890238899305,0.9999999999947244,1
0.7001514016064223,4.2989672417138174e-12,0.3442920843,22063999.99999776,647.0959999999873,5.84934e-25,0.9999890238894223,0.9999999999942166,1
0.710035711164716,4.9693034760202645e-12,0.3442920843,22063999.99999776,647.0959999999873,5.84934e-25,0.9999890238888998,0.9999999999936936,1
0.7197003785398243,5.7014907332719715e-12,0.3442920843,22063999.99999776,647.0959999999873,5.84934e-25,0.9999890238883636,0.9999999999931576,1
0.7291478716214458,6.496265796510811e-12,0.3442920843,22063999.99999776,647.0959999999873,5.84934e-25,0.999989023887816,0.99999999999261,1
0.7383806582992792,7.353984624098825e-12,0.3442920843,22063999.99999776,647.0959999999873,5.84934e-25,0.9999890238872586,0.9999999999920528,1
0.7474012064630237,8.274630812392064e-12,0.3442920843,22063999.99999776,647.0959999999873,5.84934e-25,0.9999890238866934,0.9999999999914874,1
0.7562119840023773,9.257827642876211e-12,0.3442920843,22063999.99999776,647.0959999999873,5.84934e-25,0.9999890238861221,0.9999999999909156,1
0.764815458807039,1.0302853104211524e-11,0.3442920843,22063999.99999776,647.0959999999873,5.84934e-25,0.9999890238855454,0.9999999999903392,1
0.7732140987667077,1.140865732360975e-11,0.3442920843,22063999.99999776,647.0959999999873,5.84934e-25,0.9999890238849654,0.9999999999897592,1
0.781410371771082,1.2573881890637608e-11,0.3442920843,22063999.99999776,647.0959999999873,5.84934e-25,0.9999890238843838,0.9999999999891775,1
0.7894067457098604,1.3796880607225839e-11,0.3442920843,22063999.99999776,647.0959999999873,5.84934e-25,0.9999890238838013,0.9999999999885948,1
0.797205688472742,1.5075741248805012e-11,0.3442920843,22063999.99999776,647.0959999999873,5.84934e-25,0.999989023883219,0.9999999999880128,1
0.8048096679494252,1.6408307971203624e-11,0.3442920843,22063999.99999776,647.0959999999873,5.84934e-25,0.9999890238826388,0.9999999999874326,1
0.8122211520296089,1.779220404516134e-11,0.3442920843,22063999.99999776,647.0959999999873,5.84934e-25,0.999989023882061,0.999999999986855,1
0.8194426086029916,1.9224854644291292e-11,0.3442920843,22063999.99999776,647.0959999999873,5.84934e-25,0.9999890238814869,0.9999999999862812,1
0.8264765055592721,2.0703509452562834e-11,0.3442920843,22063999.99999776,647.0959999999873,5.84934e-25,0.9999890238809178,0.9999999999857117,1
0.8333253107881493,2.222526489401966e-11,0.3442920843,22063999.99999776,647.0959999999873,5.84934e-25,0.999989023880354,0.9999999999851475,1
0.839991492179322,2.378708582088258e-11,0.3442920843,22063999.99999776,647.0959999999873,5.84934e-25,0.9999890238797958,0.99999999998459,1
0.8464775176224881,2.5385826526362256e-11,0.3442920843,22063999.99999776,647.0959999999873,5.84934e-25,0.9999890238792448,0.9999999999840388,1
0.8527858550073475,2.7018250975827614e-11,0.3442920843,22063999.99999776,647.0959999999873,5.84934e-25,0.9999890238787015,0.999999999983495,1
0.858918972223598,2.868105217441825e-11,0.3442920843,22063999.99999776,647.0959999999873,5.84934e-25,0.9999890238781658,0.9999999999829592,1
0.8648793371609386,3.0370870610830676e-11,0.3442920843,22063999.99999776,647.0959999999873,5.84934e-25,0.9999890238776383,0.999999999982432,1
0.8706694177090679,3.2084311735944156e-11,0.3442920843,22063999.99999776,647.0959999999873,5.84934e-25,0.9999890238771196,0.9999999999819136,1
0.8762916817576849,3.38179624514175e-11,0.3442920843,22063999.99999776,647.0959999999873,5.84934e-25,0.9999890238766106,0.9999999999814044,1
0.8817485971964883,3.556840659727065e-11,0.3442920843,22063999.99999776,647.0959999999873,5.84934e-25,0.9999890238761107,0.9999999999809048,1
0.8870426319151765,3.7332239439339355e-11,0.3442920843,22063999.99999776,647.0959999999873,5.84934e-25,0.9999890238756213,0.9999999999804148,1
0.8921762538034486,3.910608116690027e-11,0.3442920843,22063999.99999776,647.0959999999873,5.84934e-25,0.9999890238751413,0.9999999999799352,1
0.8971519307510029,4.0886589418627244e-11,0.3442920843,22063999.99999776,647.0959999999873,5.84934e-25,0.999989023874672,0.9999999999794658,1
0.9019721306475383,4.267047086056905e-11,0.3442920843,22063999.99999776,647.0959999999873,5.84934e-25,0.9999890238742135,0.999999999979007,1
0.9066393213827536,4.445449184384516e-11,0.3442920843,22063999.99999776,647.0959999999873,5.84934e-25,0.9999890238737652,0.9999999999785588,1
0.9111559708463474,4.6235488171995264e-11,0.3442920843,22063999.99999776,647.0959999999873,5.84934e-25,0.9999890238733278,0.9999999999781214,1
0.9155245469280183,4.801037400863885e-11,0.3442920843,22063999.99999776,647.0959999999873,5.84934e-25,0.9999890238729015,0.999999999977695,1
0.9197475175174654,4.977614995568399e-11,0.3442920843,22063999.99999776,647.0959999999873,5.84934e-25,0.9999890238724857,0.9999999999772794,1
0.9238273505043871,5.1529910330960626e-11,0.3442920843,22063999.99999776,647.0959999999873,5.84934e-25,0.9999890238720813,0.9999999999768748,1
0.9277665137784822,5.326884967263503e-11,0.3442920843,22063999.99999776,647.0959999999873,5.84934e-25,0.9999890238716875,0.9999999999764811,1
0.9315674752294493,5.4990268496706095e-11,0.3442920843,22063999.99999776,647.0959999999873,5.84934e-25,0.9999890238713051,0.9999999999760988,1
0.9352327027469872,5.669157833374851e-11,0.3442920843,22063999.99999776,647.0959999999873,5.84934e-25,0.9999890238709336,0.9999999999757272,1
0.9387646642207949,5.837030607309784e-11,0.3442920843,22063999.99999776,647.0959999999873,5.84934e-25,0.9999890238705731,0.9999999999753668,1
0.9421658275405704,6.002409764683803e-11,0.3442920843,22063999.99999776,647.0959999999873,5.84934e-25,0.9999890238702236,0.9999999999750172,1
0.9454386605960131,6.165072109254162e-11,0.3442920843,22063999.99999776,647.0959999999873,5.84934e-25,0.9999890238698851,0.9999999999746788,1
0.9485856312768214,6.324806904263694e-11,0.3442920843,22063999.99999776,647.0959999999873,5.84934e-25,0.9999890238695575,0.999999999974351,1
0.9516092074726941,6.481416069799879e-11,0.3442920843,22063999.99999776,647.0959999999873,5.84934e-25,0.9999890238692407,0.999999999974034,1
0.95451185707333,6.634714335349205e-11,0.3442920843,22063999.99999776,647.0959999999873,5.84934e-25,0.9999890238689343,0.999999999973728,1
0.9572960479684275,6.784529355138923e-11,0.3442920843,22063999.99999776,647.0959999999873,5.84934e-25,0.9999890238686387,0.9999999999734328,1
0.9599642480476854,6.930701794375251e-11,0.3442920843,22063999.99999776,647.0959999999873,5.84934e-25,0.9999890238683542,0.9999999999731476,1
0.962518925200803,7.07308539455021e-11,0.3442920843,22063999.99999776,647.0959999999873,5.84934e-25,0.9999890238680798,0.9999999999728736,1
0.964962547317478,7.211547025480246e-11,0.3442920843,22063999.99999776,647.0959999999873,5.84934e-25,0.9999890238678157,0.9999999999726096,1
0.96729758228741,7.345966730544164e-11,0.3442920843,22063999.99999776,647.0959999999873,5.84934e-25,0.9999890238675619,0.9999999999723556,1
0.9695264980002972,7.476237769632738e-11,0.3442920843,22063999.99999776,647.0959999999873,5.84934e-25,0.9999890238673184,0.999999999972112,1
0.9716517623458385,7.602266661478291e-11,0.3442920843,22063999.99999776,647.0959999999873,5.84934e-25,0.9999890238670847,0.9999999999718784,1
0.9736758432137326,7.723973223215069e-11,0.3442920843,22063999.99999776,647.0959999999873,5.84934e-25,0.9999890238668612,0.9999999999716548,1
0.975601208493678,7.841290600176195e-11,0.3442920843,22063999.99999776,647.0959999999873,5.84934e-25,0.9999890238666472,0.999999999971441,1
0.977430326075374,7.954165273213733e-11,0.3442920843,22063999.99999776,647.0959999999873,5.84934e-25,0.9999890238664431,0.9999999999712368,1
0.9791656638485186,8.062557024716645e-11,0.3442920843,22063999.99999776,647.0959999999873,5.84934e-25,0.9999890238662483,0.999999999971042,1
0.980809689702811,8.166438839119755e-11,0.3442920843,22063999.99999776,647.0959999999873,5.84934e-25,0.9999890238660629,0.9999999999708564,1
0.9823648715279498,8.265796710895509e-11,0.3442920843,22063999.99999776,647.0959999999873,5.84934e-25,0.9999890238658865,0.99999999997068,1
0.9838336772136336,8.360629335379746e-11,0.3442920843,22063999.99999776,647.0959999999873,5.84934e-25,0.9999890238657191,0.9999999999705128,1
0.9852185746495611,8.450947667625495e-11,0.3442920843,22063999.99999776,647.0959999999873,5.84934e-25,0.9999890238655608,0.9999999999703542,1
0.9865220317254312,8.53677435241294e-11,0.3442920843,22063999.99999776,647.0959999999873,5.84934e-25,0.9999890238654106,0.9999999999702042,1
0.9877465163309423,8.618143051690958e-11,0.3442920843,22063999.99999776,647.0959999999873,5.84934e-25,0.999989023865269,0.9999999999700624,1
0.9888944963557934,8.695097717178185e-11,0.3442920843,22063999.99999776,647.0959999999873,5.84934e-25,0.9999890238651357,0.9999999999699292,1
0.9899684396896833,8.767691867704842e-11,0.3442920843,22063999.99999776,647.0959999999873,5.84934e-25,0.99998902386501,0.9999999999698038,1
0.9909708142223103,8.835987928287698e-11,0.3442920843,22063999.99999776,647.0959999999873,5.84934e-25,0.9999890238648923,0.999999999969686,1
0.9919040878433735,8.90005667261693e-11,0.3442920843,22063999.99999776,647.0959999999873,5.84934e-25,0.9999890238647825,0.999999999969576,1
0.9927707284425712,8.959976789462023e-11,0.3442920843,22063999.99999776,647.0959999999873,5.84934e-25,0.9999890238646796,0.9999999999694734,1
0.9935732039096026,9.01583457421366e-11,0.3442920843,22063999.99999776,647.0959999999873,5.84934e-25,0.9999890238645841,0.999999999969378,1
0.9943139821341662,9.067723733737775e-11,0.3442920843,22063999.99999776,647.0959999999873,5.84934e-25,0.9999890238644957,0.9999999999692892,1
0.9949955310059608,9.115745285792714e-11,0.3442920843,22063999.99999776,647.0959999999873,5.84934e-25,0.9999890238644139,0.9999999999692076,1
0.9956203184146847,9.160007529860429e-11,0.3442920843,22063999.99999776,647.0959999999873,5.84934e-25,0.9999890238643386,0.9999999999691322,1
0.996190812250037,9.200626059651497e-11,0.3442920843,22063999.99999776,647.0959999999873,5.84934e-25,0.9999890238642697,0.9999999999690632,1
0.9967094804017167,9.237723775024958e-11,0.3442920843,22063999.99999776,647.0959999999873,5.84934e-25,0.9999890238642066,0.9999999999690004,1
0.9971787907594218,9.271430833145428e-11,0.3442920843,22063999.99999776,647.0959999999873,5.84934e-25,0.9999890238641497,0.9999999999689432,1
0.9976012112128513,9.301884463859718e-11,0.3442920843,22063999.99999776,647.0959999999873,5.84934e-25,0.9999890238640979,0.9999999999688918,1
0.9979792096517042,9.32922858025702e-11,0.3442920843,22063999.99999776,647.0959999999873,5.84934e-25,0.999989023864052,0.9999999999688454,1
0.9983152539656789,9.353613159293916e-11,0.3442920843,22063999.99999776,647.0959999999873,5.84934e-25,0.9999890238640109,0.9999999999688044,1
0.9986118120444741,9.375193444049174e-11,0.3442920843,22063999.99999776,647.0959999999873,5.84934e-25,0.9999890238639746,0.9999999999687678,1
0.9988713517777887,9.394129088473125e-11,0.3442920843,22063999.99999776,647.0959999999873,5.84934e-25,0.9999890238639421,0.9999999999687358,1
0.9990963410553214,9.410583379210074e-11,0.3442920843,22063999.99999776,647.0959999999873,5.84934e-25,0.9999890238639143,0.999999999968708,1
0.9992892477667709,9.424722618827097e-11,0.3442920843,22063999.99999776,647.0959999999873,5.84934e-25,0.9999890238638905,0.999999999968684,1
0.9994525398018355,9.436715680813141e-11,0.3442920843,22063999.99999776,647.0959999999873,5.84934e-25,0.9999890238638701,0.999999999968664,1
0.9995886850502146,9.446733695488177e-11,0.3442920843,22063999.99999776,647.0959999999873,5.84934e-25,0.9999890238638535,0.999999999968647,1
0.9997001514016063,9.45494981270763e-11,0.3442920843,22063999.99999776,647.0959999999873,5.84934e-25,0.9999890238638394,0.9999999999686332,1
0.9997894067457098,9.461538999375053e-11,0.3442920843,22063999.99999776,647.0959999999873,5.84934e-25,0.9999890238638283,0.999999999968622,1
0.9998589189722237,9.466677848871518e-11,0.3442920843,22063999.99999776,647.0959999999873,5.84934e-25,0.9999890238638196,0.9999999999686132,1
0.9999111559708462,9.470544394762563e-11,0.3442920843,22063999.99999776,647.0959999999873,5.84934e-25,0.9999890238638129,0.9999999999686068,1
0.9999485856312768,9.473317929964703e-11,0.3442920843,22063999.99999776,647.0959999999873,5.84934e-25,0.9999890238638084,0.999999999968602,1
0.9999736758432137,9.47517883638557e-11,0.3442920843,22063999.99999776,647.0959999999873,5.84934e-25,0.9999890238638053,0.9999999999685988,1
0.9999888944963559,9.476308429735823e-11,0.3442920843,22063999.99999776,647.0959999999873,5.84934e-25,0.9999890238638034,0.999999999968597,1
0.9999967094804018,9.476888810087529e-11,0.3442920843,22063999.99999776,647.0959999999873,5.84934e-25,0.9999890238638024,0.999999999968596,1
0.9999995886850501,9.477102701115447e-11,0.3442920843,22063999.99999776,647.0959999999873,5.84934e-25,0.9999890238638018,0.9999999999685956,1
0.43747292391000414,7.112232387933744e-15,0.3442920843,22063999.99999776,647.0959999999873,5.84934e-25,0.9999890238950964,0.9999999999998902,1
0.45253980183559434,1.334203117469562e-14,0.3442920843,22063999.99999776,647.0959999999873,5.84934e-25,0.9999890238950409,0.9999999999998348,1
0.467335211894326,2.3668463230042134e-14,0.3442920843,22063999.99999776,647.0959999999873,5.84934e-25,0.9999890238949665,0.9999999999997606,1
0.4818616219758979,3.997210824242793e-14,0.3442920843,22063999.99999776,647.0959999999873,5.84934e-25,0.9999890238948702,0.999999999999664,1
0.4961214999700088,6.463311185604908e-14,0.3442920843,22063999.99999776,647.0959999999873,5.84934e-25,0.9999890238947479,0.9999999999995418,1
0.5101173137663577,1.0054957533513794e-13,0.3442920843,22063999.99999776,647.0959999999873,5.84934e-25,0.9999890238945967,0.9999999999993908,1
0.523851531254643,1.511312601453145e-13,0.3442920843,22063999.99999776,647.0959999999873,5.84934e-25,0.9999890238944141,0.999999999999208,1
0.5373266203245634,2.2026903947715e-13,0.3442920843,22063999.99999776,647.0959999999873,5.84934e-25,0.9999890238941972,0.9999999999989913,1
0.5505450488658176,3.122825331111931e-13,0.3442920843,22063999.99999776,647.0959999999873,5.84934e-25,0.9999890238939445,0.9999999999987385,1
0.5635092847681047,4.3184978166823724e-13,0.3442920843,22063999.99999776,647.0959999999873,5.84934e-25,0.9999890238936542,0.9999999999984482,1
0.5762217959211229,5.839236082909272e-13,0.3442920843,22063999.99999776,647.0959999999873,5.84934e-25,0.9999890238933258,0.9999999999981198,1
0.5886850502145712,7.736395411417292e-13,0.3442920843,22063999.99999776,647.0959999999873,5.84934e-25,0.9999890238929586,0.9999999999977526,1
0.6009015155381483,1.0062199499184283e-12,0.3442920843,22063999.99999776,647.0959999999873,5.84934e-25,0.9999890238925531,0.9999999999973468,1
0.6128736597815527,1.2868785256504948e-12,0.3442920843,22063999.99999776,647.0959999999873,5.84934e-25,0.9999890238921093,0.9999999999969033,1
0.6246039508344834,1.6207285387675308e-12,0.3442920843,22063999.99999776,647.0959999999873,5.84934e-25,0.9999890238916287,0.9999999999964226,1
0.6360948565866388,2.0126975543319504e-12,0.3442920843,22063999.99999776,647.0959999999873,5.84934e-25,0.9999890238911125,0.9999999999959064,1
0.647348844927718,2.4674505433550246e-12,0.3442920843,22063999.99999776,647.0959999999873,5.84934e-25,0.9999890238905622,0.9999999999953562,1
0.6583683837474194,2.9893226545612774e-12,0.3442920843,22063999.99999776,647.0959999999873,5.84934e-25,0.99998902388998,0.999999999994774,1
0.6691559409354417,3.5822623281573814e-12,0.3442920843,22063999.99999776,647.0959999999873,5.84934e-25,0.9999890238893682,0.999999999994162,1
0.679713984381484,4.249784951994592e-12,0.3442920843,22063999.99999776,647.0959999999873,5.84934e-25,0.9999890238887286,0.9999999999935224,1
0.6900449819752446,4.994936880162762e-12,0.3442920843,22063999.99999776,647.0959999999873,5.84934e-25,0.9999890238880637,0.9999999999928576,1
0.7001514016064223,5.820269347249503e-12,0.3442920843,22063999.99999776,647.0959999999873,5.84934e-25,0.9999890238873762,0.99999999999217,1
0.710035711164716,6.727821607487992e-12,0.3442920843,22063999.99999776,647.0959999999873,5.84934e-25,0.9999890238866681,0.999999999991462,1
0.7197003785398243,7.719112494394367e-12,0.3442920843,22063999.99999776,647.0959999999873,5.84934e-25,0.999989023885942,0.999999999990736,1
0.7291478716214458,8.795139520989834e-12,0.3442920843,22063999.99999776,647.0959999999873,5.84934e-25,0.9999890238852007,0.9999999999899948,1
0.7383806582992792,9.956384610819538e-12,0.3442920843,22063999.99999776,647.0959999999873,5.84934e-25,0.9999890238844462,0.9999999999892404,1
0.7474012064630237,1.1202825555376409e-11,0.3442920843,22063999.99999776,647.0959999999873,5.84934e-25,0.9999890238836808,0.999999999988475,1
0.7562119840023773,1.2533952324443802e-11,0.3442920843,22063999.99999776,647.0959999999873,5.84934e-25,0.999989023882907,0.999999999987701,1
